2048
0.004735
0.063319
-0.044933
0.052073
-0.009686
-0.008986
0.099893
0.013601
0.004394
0.043831
0.064515
0.007445
0.039201
-0.038071
-0.006911
-0.009665
-0.053562
-0.061562
-0.066673
0.003549
0.007719
0.001149
0.021455
-0.047941
0.015716
0.032460
0.058991
-0.019963
0.003294
-0.076492
0.000112
-0.083450
-0.043421
0.083879
-0.079913
0.071592
0.049708
0.019526
0.060148
0.065830
0.094274
0.033333
0.018423
0.021352
0.006203
0.057642
0.025404
0.123381
-0.017800
0.027162
0.040814
-0.009128
0.198051
-0.009727
0.104541
0.100648
0.218004
0.044234
0.205279
0.123072
0.159489
0.140843
0.212975
0.129936
0.187949
0.213763
0.291354
0.081326
0.279063
0.250383
0.177941
0.215506
0.174151
0.276100
0.199764
0.173335
0.166955
0.162143
0.156736
0.114819
0.254773
0.049389
-0.042171
0.125337
0.117778
0.137682
0.103168
0.100738
0.119955
0.147408
0.072698
0.073018
0.185686
0.112580
0.034617
0.198261
0.119365
0.049926
0.019728
0.092673
0.035661
0.024085
0.012005
0.051465
0.132194
0.055218
0.004392
0.109873
0.078309
0.113877
0.125210
0.045707
0.031163
0.017036
-0.056386
0.019728
0.049946
-0.004147
-0.009383
0.010676
0.009110
0.038473
0.106814
0.171417
0.338484
0.492326
0.829019
1.011027
1.026981
0.890522
0.803428
0.611389
0.297583
0.147967
0.038261
0.030703
-0.097754
-0.043027
-0.139295
-0.098489
-0.149179
-0.152886
-0.191533
-0.117817
-0.056928
0.029100
0.044783
0.028264
0.107661
0.154726
0.111502
0.107378
0.118144
0.185940
0.179620
0.113630
0.186593
0.152045
0.147103
0.255754
0.244409
0.177125
0.227750
0.259622
0.213635
0.250877
0.301690
0.190411
0.307772
0.339757
0.339260
0.257902
0.351451
0.302394
0.383521
0.394014
0.382587
0.340610
0.355493
0.432908
0.349351
0.422051
0.424652
0.385798
0.518928
0.401009
0.501975
0.289876
0.273467
0.428690
0.404417
0.349131
0.353426
0.251619
0.305393
0.274745
0.304516
0.348801
0.295845
0.300382
0.235480
0.237310
0.253494
0.222832
0.289534
0.172215
0.300654
0.147608
0.240632
0.140492
0.253567
0.170496
0.176624
0.187483
0.112555
0.086739
0.032514
0.190291
0.090357
0.091836
0.116538
0.214513
0.025964
0.122449
0.088049
0.132540
0.014313
0.082876
0.143470
0.178219
0.179055
0.055542
0.100185
0.091205
0.027198
0.023387
0.132680
0.106587
0.086685
0.154143
0.042826
0.118818
0.092583
0.088719
0.115810
0.099707
0.103870
0.103426
0.186613
0.073779
0.139565
0.118994
0.070708
0.127590
0.044530
0.145031
0.046130
0.061698
0.101926
0.126971
0.130295
0.129156
0.073689
0.035799
0.110637
0.097780
0.034600
0.130430
0.091240
0.032918
0.102384
0.013575
0.035461
0.098946
0.000453
0.079701
0.009791
0.113707
0.039985
0.084986
0.000239
0.057678
0.121785
0.096845
-0.018364
0.119408
0.117464
0.053768
0.143235
0.019307
0.067984
0.128062
0.138160
0.137099
0.019036
-0.014379
0.095361
0.005672
0.072470
0.017119
0.136810
0.126881
0.117925
0.094820
0.100569
0.088173
0.127436
0.126372
0.142881
0.104816
0.227792
0.153763
0.216255
0.219954
0.116231
0.082387
0.235775
0.159267
0.187883
0.175277
0.198429
0.135197
0.191348
0.174149
0.196380
0.079137
0.234663
0.206936
0.099777
0.144314
0.176687
0.199986
0.161396
0.222926
0.146886
0.087557
0.095428
0.158107
0.082038
0.146712
0.147911
0.118874
0.133246
0.067051
0.069065
0.034224
0.028022
-0.024550
0.021554
-0.008187
-0.029581
0.045932
0.058471
0.016092
0.099311
0.075879
0.079241
-0.004860
-0.050793
0.050341
0.036552
0.056183
0.039346
0.079762
-0.000394
0.042727
-0.043296
-0.126282
-0.050092
0.026661
-0.152351
-0.033062
-0.124126
-0.105602
-0.069380
-0.041070
-0.077175
0.007106
0.069906
0.174864
0.240978
0.565867
0.822743
1.043950
0.930965
0.926253
0.621822
0.484846
0.270553
0.021990
-0.106486
-0.087646
-0.116784
-0.229348
-0.235785
-0.370774
-0.287056
-0.236009
-0.213207
-0.108611
-0.206368
-0.223051
-0.052530
-0.075256
-0.008381
0.030319
0.036904
0.088291
0.091258
-0.053088
0.033238
0.142779
0.029091
0.104963
0.061416
0.051295
0.160020
0.141984
0.087139
0.154460
0.053523
0.093255
0.185117
0.152543
0.108065
0.194164
0.198426
0.256242
0.249474
0.196994
0.195134
0.220308
0.222887
0.313705
0.325342
0.318096
0.272468
0.243407
0.301815
0.239049
0.266999
0.169394
0.227901
0.316358
0.187229
0.157168
0.215851
0.298819
0.278649
0.178083
0.161557
0.168817
0.116299
0.152873
0.124127
0.053264
0.086071
0.090253
0.048279
0.023810
0.113789
0.152443
0.032832
0.015938
0.052745
0.007128
-0.029060
0.071660
-0.057462
-0.048903
-0.051995
-0.068948
-0.042084
-0.006392
0.032324
-0.010755
-0.045901
-0.113638
-0.057233
-0.104023
-0.064346
-0.012794
-0.053544
-0.076117
-0.104902
-0.069847
-0.064544
-0.117731
-0.097703
-0.029367
-0.157422
-0.097409
-0.134405
0.000512
-0.047258
-0.052459
-0.058997
-0.065083
-0.065389
-0.159810
-0.068187
-0.051889
-0.153507
-0.041354
-0.049786
-0.159708
-0.107621
-0.099849
-0.111267
-0.065805
-0.149615
-0.097375
-0.075350
-0.050776
-0.084966
-0.099919
-0.053668
-0.188070
-0.042273
-0.104709
-0.152244
-0.111511
-0.182085
-0.192971
-0.107441
-0.130301
-0.055080
-0.136392
-0.157147
-0.140601
-0.007231
-0.092020
-0.124115
-0.143306
-0.148997
-0.102515
-0.073146
-0.037143
-0.037560
-0.081421
-0.128071
-0.138186
-0.210832
-0.146010
-0.073909
-0.111604
-0.075911
-0.161184
-0.048241
-0.077472
-0.089062
-0.069807
-0.200052
-0.114177
-0.128868
0.009212
-0.087516
-0.100147
-0.028329
-0.119289
0.009382
-0.091556
-0.053608
-0.090227
0.002541
-0.139505
0.010826
-0.057296
-0.006328
-0.058841
0.017551
0.022662
0.049665
0.042288
0.063546
0.087194
0.022440
-0.013573
-0.015936
0.083533
0.031243
0.102176
0.050310
-0.005059
0.087376
0.134930
0.023659
-0.020010
-0.021701
0.058280
-0.022601
-0.020984
0.026068
-0.015038
-0.017208
-0.057344
-0.068922
-0.035338
-0.041945
-0.025806
-0.085645
-0.048218
-0.046018
-0.069522
-0.048560
-0.029521
-0.072749
-0.080964
-0.135205
-0.071871
-0.094236
-0.106105
-0.132674
-0.063343
0.035447
-0.071183
-0.088741
-0.071427
-0.123165
-0.089453
-0.128989
-0.131512
-0.094589
-0.105924
-0.138926
-0.192305
-0.158548
-0.240330
-0.152460
-0.202638
-0.170130
-0.109759
-0.096860
-0.158939
-0.058579
0.058819
0.132861
0.277808
0.634752
0.833028
0.932791
0.836358
0.637188
0.395019
0.229880
0.023287
-0.079203
-0.194503
-0.168640
-0.274365
-0.259879
-0.422616
-0.310911
-0.318395
-0.312726
-0.191030
-0.195353
-0.182482
-0.165041
-0.014242
-0.046367
-0.032503
-0.089567
0.024351
-0.004139
-0.037637
-0.021812
-0.090083
0.031706
-0.046815
0.058742
0.004160
0.005011
0.064866
0.067771
0.012142
0.076143
0.121839
0.090928
0.048355
0.115273
0.091320
0.122154
0.164720
0.170783
0.173520
0.111468
0.220614
0.201781
0.199123
0.233890
0.327871
0.172272
0.160008
0.280487
0.204450
0.308638
0.193766
0.216449
0.278845
0.278294
0.249604
0.243854
0.207570
0.184177
0.187351
0.251499
0.213809
0.169446
0.173958
0.188914
0.195881
0.119795
0.111914
0.121913
0.225041
0.097523
0.139198
-0.009294
0.100544
-0.019635
-0.011142
0.003989
0.021804
0.031738
0.035506
0.023390
-0.014050
0.132401
0.019570
0.029983
0.094500
0.039682
0.018342
0.003943
0.079179
-0.068248
-0.063046
-0.008941
-0.117731
-0.055537
0.038868
-0.039944
-0.008850
0.017579
-0.074168
-0.002588
-0.046754
-0.069217
-0.028086
-0.016619
-0.033064
-0.045224
0.035554
0.046032
0.017204
-0.014422
-0.061024
-0.048697
-0.062052
0.003831
0.039559
0.040259
-0.005298
-0.022292
0.006375
0.004387
0.028627
0.073036
-0.033028
0.105264
-0.101538
-0.084898
-0.070873
-0.045872
-0.005867
0.108865
-0.027280
0.062845
-0.008928
0.017308
-0.039944
0.123875
0.010335
-0.017403
0.126459
0.023642
0.036060
0.009126
-0.023953
-0.052868
0.010132
0.099700
0.041400
0.012790
0.074853
-0.022890
0.092409
0.024465
-0.014760
0.061136
0.054308
0.013132
0.042314
0.081769
0.104748
-0.004767
-0.090826
0.143361
0.031821
0.027382
0.072872
0.034365
0.111487
0.003028
0.059811
0.013430
0.157363
0.076243
0.149927
0.171661
0.051478
0.107769
0.162542
0.137687
0.136841
0.193380
0.204876
0.137910
0.167671
0.213051
0.197306
0.198910
0.140547
0.286338
0.190205
0.216064
0.201240
0.205354
0.207738
0.156057
0.212499
0.248890
0.204004
0.214275
0.196158
0.167132
0.248758
0.118039
0.164025
0.189083
0.145943
0.072916
0.065215
0.190929
0.060665
0.103783
0.125983
0.099703
0.003509
-0.005478
0.080850
0.045527
0.069102
0.085101
0.087465
0.012107
-0.005686
0.123925
0.045751
0.018626
-0.022291
0.103407
0.014383
0.024948
0.107386
0.090198
0.099611
0.002240
-0.088189
-0.010582
0.004386
-0.032562
0.030451
-0.000742
-0.064711
0.030592
0.016316
0.024046
0.134438
0.043858
0.264822
0.414567
0.468952
0.802035
1.000478
1.028239
0.976933
0.763425
0.559348
0.306466
0.065542
0.126126
0.042646
-0.093478
-0.048822
-0.023434
-0.222134
-0.171234
-0.167163
-0.089855
-0.098561
-0.113591
0.058922
0.016477
0.099457
0.201260
0.068223
0.098416
0.174842
0.132538
0.171427
0.152507
0.300123
0.199587
0.193301
0.190954
0.213133
0.122046
0.199836
0.260975
0.174523
0.247752
0.252176
0.242742
0.404723
0.327167
0.319480
0.274791
0.329228
0.320631
0.341127
0.366107
0.488988
0.438752
0.464366
0.453797
0.531462
0.361374
0.333059
0.409577
0.412783
0.401051
0.366430
0.429107
0.477071
0.396821
0.368404
0.432588
0.349652
0.338515
0.362797
0.222853
0.420885
0.310510
0.330535
0.309129
0.302404
0.203779
0.347866
0.276790
0.252125
0.384032
0.152757
0.243375
0.191917
0.112812
0.276423
0.093542
0.170973
0.152688
0.159830
0.097468
0.207405
0.146766
0.065732
0.064593
0.135350
0.060278
0.137006
0.129041
0.080980
0.011466
0.041055
0.122480
0.077134
0.194658
0.078473
0.118606
0.132485
0.102320
0.112476
0.146852
0.088451
0.112019
0.076614
0.194389
0.102175
0.135096
-0.056151
0.068012
0.035604
0.093512
0.068989
0.038313
0.076607
0.130743
0.143180
0.062591
0.141821
0.057543
0.119032
0.044717
0.139657
0.203010
0.071856
0.147297
0.013026
0.053503
0.217952
0.080871
0.109039
0.001982
0.082278
0.043268
0.142292
0.054895
0.208671
0.025797
0.096453
-0.020630
0.058832
0.139420
0.072635
0.012627
0.101747
0.124082
0.098051
0.125192
0.003969
0.165845
0.109748
-0.031646
0.167097
0.049605
0.098418
-0.026554
0.041005
-0.018994
0.114547
0.061259
0.027117
0.055200
0.130987
0.036916
0.105868
0.019986
-0.001962
0.059490
0.072482
0.099153
0.141246
0.077682
0.084966
0.146588
0.135457
0.117398
0.138228
0.023448
0.112440
0.066668
0.135902
0.205285
0.082716
0.219022
0.150607
0.173338
0.165123
0.227422
0.161302
0.092647
0.213554
0.189712
0.227486
0.223768
0.129862
0.196395
0.187083
0.171488
0.173476
0.177151
0.126075
0.138266
0.186608
0.076183
0.117013
0.061988
0.051563
0.076091
0.098263
0.158380
0.065713
0.116262
0.090861
0.062008
-0.101186
0.055649
0.048151
-0.010143
0.045188
0.109471
-0.024452
0.005346
0.074229
-0.063071
-0.026310
0.038653
0.070054
0.081962
0.057655
0.133808
0.036168
-0.050573
-0.000353
0.032723
0.007732
-0.124663
-0.029046
-0.108246
-0.093851
-0.017025
-0.093879
-0.104657
-0.057626
-0.060687
0.103104
0.089047
0.178766
0.244571
0.456257
0.740243
0.814241
1.049187
0.853755
0.719824
0.482762
0.203343
0.097169
0.007776
-0.001969
-0.128506
-0.098814
-0.199376
-0.254100
-0.208629
-0.269348
-0.213194
-0.156561
-0.092182
-0.096651
-0.148108
0.019201
-0.014171
-0.020464
-0.033531
0.045045
0.040315
0.064273
0.029937
0.119438
0.036413
0.077089
0.074193
0.125398
0.046420
0.075027
0.088480
0.076007
0.086471
0.069276
0.177510
0.225065
0.112154
0.210067
0.124501
0.151457
0.185761
0.216799
0.241995
0.130777
0.168709
0.244670
0.233538
0.356517
0.239572
0.223088
0.316808
0.123207
0.161928
0.388173
0.217882
0.247673
0.229166
0.187266
0.216714
0.149695
0.253888
0.234424
0.219190
0.128408
0.066162
0.126695
0.084118
0.146245
0.034196
0.056770
0.097745
0.100976
0.072988
-0.005601
0.012853
0.136952
0.074364
-0.022817
0.104890
-0.004829
-0.005904
-0.053831
0.056381
-0.019599
-0.034514
-0.081436
-0.103870
-0.035282
-0.047582
0.026255
-0.099752
-0.075835
-0.010404
-0.021342
-0.097808
0.007167
-0.043817
-0.024471
-0.053101
-0.022986
-0.093517
-0.084425
-0.020383
-0.055887
-0.058280
-0.020232
-0.066054
-0.058182
-0.188955
-0.105865
-0.039184
-0.124797
-0.095847
-0.070476
-0.089257
-0.039753
-0.059846
-0.092564
-0.030153
-0.102760
-0.120618
-0.069647
-0.054572
-0.093673
-0.140482
-0.112920
-0.076331
-0.054061
-0.000119
-0.096665
-0.100164
-0.196720
-0.026195
-0.044791
-0.090283
-0.126478
-0.221574
-0.055333
-0.131068
-0.016980
-0.054746
-0.028793
-0.100268
-0.034124
-0.163816
-0.021177
-0.095972
-0.153487
-0.114807
-0.143476
-0.081974
-0.131373
-0.158948
-0.113341
-0.106940
-0.085096
-0.060456
-0.032007
-0.074035
-0.012007
-0.216746
-0.096047
-0.044667
-0.155683
-0.098599
-0.075591
-0.161593
-0.110233
-0.048767
-0.090909
0.005339
0.051118
-0.065553
-0.113863
-0.052704
-0.072817
-0.109339
-0.051225
-0.047276
-0.034303
0.036902
0.051741
0.026493
-0.004802
0.040933
0.027489
0.043312
-0.011033
-0.111972
0.089272
0.018005
0.024377
0.049099
0.046565
0.032809
0.121475
0.048258
0.049125
-0.011564
0.021841
0.043361
0.009625
0.022620
-0.047652
0.010351
-0.066629
-0.045019
-0.068732
-0.028272
0.010640
-0.035409
-0.099158
-0.054146
-0.014042
-0.033920
-0.048988
-0.133419
-0.107820
-0.116523
-0.108652
-0.075286
-0.086491
-0.107110
-0.062563
-0.127046
-0.108523
-0.087423
-0.160444
-0.135742
-0.162740
-0.145790
-0.101362
-0.102337
-0.082609
-0.089983
-0.173989
-0.040744
-0.085578
-0.232545
-0.220386
-0.215094
-0.175580
-0.139795
-0.149154
-0.252293
0.048217
-0.003794
0.081286
0.149828
0.402845
0.684349
0.811786
0.967891
0.836356
0.709109
0.385361
0.235045
-0.080596
-0.034703
-0.152639
-0.243860
-0.211803
-0.310063
-0.276700
-0.276080
-0.261627
-0.180135
-0.187207
-0.091483
-0.140353
-0.131301
-0.088532
-0.085724
-0.126781
-0.044407
-0.099988
-0.046213
-0.039378
-0.044191
-0.062086
0.004584
0.006380
0.084932
0.057355
0.082847
0.023022
0.041657
0.006200
0.036544
0.126994
0.093725
0.108196
0.099360
0.216161
0.148077
0.218914
0.171431
0.230967
0.145670
0.136313
0.266575
0.204155
0.239390
0.275202
0.271058
0.253380
0.183256
0.208954
0.245552
0.274399
0.266185
0.255396
0.194518
0.227180
0.269243
0.170995
0.177601
0.242291
0.266972
0.198794
0.168846
0.110628
0.141509
0.097588
0.133228
0.151168
0.127897
0.159772
0.034928
0.013223
0.134750
0.110101
0.001928
0.049241
-0.017748
0.027861
0.038283
0.064951
-0.035921
-0.055261
0.031914
-0.016726
0.066343
-0.062719
-0.040479
-0.146029
0.043984
0.052470
0.005952
-0.030594
-0.116571
-0.084578
-0.043210
0.077640
0.027345
-0.046647
0.004569
0.011122
0.009143
-0.061487
-0.036736
0.035072
0.020587
-0.029897
0.108732
0.002175
-0.031234
0.034694
0.030632
-0.014968
0.081711
0.046389
-0.005177
0.029640
0.028451
-0.017868
0.033327
-0.028650
-0.013084
0.032115
-0.061831
-0.016015
-0.046136
0.037928
-0.025106
0.095112
0.081417
-0.028032
0.014670
-0.009985
0.008098
0.042735
0.083805
0.119254
0.103171
-0.049885
-0.010209
0.005018
-0.000580
0.023010
0.048777
-0.004985
-0.010656
0.136105
0.054299
0.128238
-0.006271
0.090888
0.107065
0.090700
-0.011685
0.053742
-0.010375
-0.026526
0.030010
0.057412
0.023370
0.030039
0.068902
0.006293
0.063577
0.083855
0.080977
0.080191
0.006290
0.046180
0.043769
0.105731
-0.010856
0.089204
0.009474
0.128107
0.077768
0.113441
0.165306
0.211974
0.086533
0.149874
0.055401
0.150145
0.133686
0.207818
0.176043
0.192317
0.137035
0.180215
0.144555
0.203041
0.124715
0.216626
0.257243
0.330185
0.272835
0.259941
0.229681
0.263466
0.177025
0.192275
0.073115
0.134610
0.209648
0.060457
0.154508
0.129378
0.107872
0.135442
0.115173
0.053375
0.100019
0.009934
0.170250
0.091179
0.133303
0.041551
0.175940
0.133182
0.098372
0.090841
0.098069
0.042240
0.070969
0.066693
0.096142
0.153679
0.134927
0.090905
0.108947
0.063141
0.051893
-0.007532
0.002964
-0.004211
0.035693
0.011277
0.022506
0.044181
0.015679
-0.019420
-0.019910
0.010069
0.079160
0.034138
0.053176
0.203278
0.413186
0.632290
0.842067
0.914329
1.077439
1.041262
0.858388
0.648409
0.288282
0.190982
-0.010110
-0.011889
-0.070739
-0.051125
-0.115336
-0.230854
-0.156379
-0.122570
-0.044865
-0.118778
-0.086121
-0.032300
0.083836
0.049523
0.091973
0.127848
0.078744
0.183883
0.057927
0.236580
0.120115
0.115367
0.131600
0.118690
0.141444
0.154400
0.145831
0.204988
0.239749
0.206083
0.254909
0.215852
0.279653
0.264060
0.237549
0.307909
0.306002
0.292329
0.333435
0.372194
0.294298
0.339099
0.403059
0.378981
0.424115
0.509502
0.332291
0.415267
0.380982
0.470877
0.427946
0.328688
0.448452
0.391178
0.370591
0.380659
0.383490
0.322303
0.337251
0.414239
0.286394
0.296672
0.353954
0.257728
0.283116
0.297000
0.225461
0.243556
0.202906
0.226417
0.240166
0.216602
0.218252
0.215237
0.226871
0.126158
0.176835
0.242216
0.144832
0.136873
0.144588
0.102790
0.161494
0.128827
0.116713
0.158332
0.177947
0.044709
0.087443
0.096394
0.037729
0.139665
0.209526
0.142852
0.164343
0.002988
0.077211
0.032539
0.136369
0.090550
0.087253
0.119493
0.132741
0.175376
0.162029
0.139856
0.011439
0.154659
0.096692
0.015635
0.099582
0.078718
0.085886
0.137870
0.022424
0.121321
0.148496
0.032088
0.157734
0.054382
0.050482
0.133711
0.085756
-0.005644
0.053720
0.119525
0.057839
0.060760
0.084496
0.083191
0.048879
0.036324
0.104235
0.142895
-0.044961
0.101490
0.130067
0.035766
0.150991
0.003855
0.125948
0.158538
0.153955
-0.055803
0.079368
0.026062
0.095048
0.144904
0.094983
0.155570
-0.009892
0.031096
0.046502
0.105902
0.133179
0.030619
0.025997
0.116787
0.006692
0.101371
0.032970
0.070321
0.178995
0.063995
0.081240
0.040879
0.111552
0.162815
0.122036
0.028627
0.116426
0.180784
0.060441
0.106874
0.073647
0.097319
0.083293
0.072513
0.170667
0.150792
0.051439
0.114643
0.136608
0.123734
0.191390
0.178169
0.210405
0.127312
0.159278
0.175561
0.178189
0.178272
0.155510
0.184188
0.268278
0.143394
0.092490
0.182788
0.115757
0.194074
0.197908
0.221455
0.136698
0.036783
0.192839
0.150886
0.161234
0.094323
0.064964
0.077082
-0.022514
0.113120
0.027666
0.023127
0.067763
0.002289
0.082193
0.008107
0.153704
0.095735
0.065339
0.045330
0.030255
0.000810
-0.071377
-0.004655
-0.017919
-0.004896
0.023217
-0.076577
-0.047648
-0.024234
-0.020997
0.035129
0.105545
-0.055107
-0.035498
-0.083556
-0.076419
0.002050
-0.062264
-0.022657
-0.025436
-0.029466
0.102282
0.125308
0.353093
0.433228
0.750711
1.007792
0.967506
0.935663
0.789465
0.488170
0.203387
0.063549
-0.010711
-0.125750
-0.168277
-0.182451
-0.284009
-0.160533
-0.280569
-0.243369
-0.214733
-0.116131
-0.167412
-0.007579
0.018441
-0.008243
-0.089669
-0.070050
-0.004652
0.031207
0.056613
0.092117
0.060227
0.046664
0.070111
-0.043851
0.123150
-0.002590
-0.015102
0.055316
0.078675
0.048697
0.109279
0.134516
0.172056
0.170822
0.136537
0.177841
0.246390
0.179901
0.195258
0.105330
0.234857
0.330310
0.272438
0.230329
0.309173
0.313870
0.322378
0.198502
0.199730
0.293486
0.282775
0.276683
0.176961
0.284672
0.335945
0.292535
0.353936
0.240086
0.213671
0.288181
0.236972
0.061264
0.086750
0.165505
0.114437
0.218380
0.195442
0.168636
0.076359
0.069972
0.109182
0.041951
0.082413
0.053245
0.067674
0.025532
-0.027157
-0.142664
-0.071926
-0.084417
0.015967
-0.095879
-0.058643
-0.009878
-0.004710
0.008376
-0.024356
0.027603
-0.082360
0.002496
-0.126793
-0.081950
-0.042190
-0.033722
-0.080256
-0.100812
-0.131400
-0.185364
-0.170371
0.008484
-0.164912
-0.154328
-0.158518
-0.090524
-0.091066
-0.108218
-0.144334
-0.086814
-0.151519
-0.063908
-0.006189
-0.129708
-0.071492
-0.108313
-0.103532
-0.150833
-0.080737
-0.085835
-0.021092
0.035064
-0.140177
-0.030023
